Tid(s)	Posisjon(m)
1.0052	0.727
1.1043	0.562
1.2037	0.434
1.3032	0.332
1.4029	0.261
1.5027	0.218
1.6028	0.205
1.7029	0.221
1.8033	0.261
1.9038	0.333
2.0045	0.429
2.1053	0.556
2.2063	0.709
2.3075	0.894
2.4088	1.111
2.5103	1.345
